ÆµÂÊ(GHz)	²¨³¤(nm)
196550	1525.273
196500	1525.661
196450	1526.05
196400	1526.438
196350	1526.827
196300	1527.216
196250	1527.605
196200	1527.994
196150	1528.384
196100	1528.773
196050	1529.163
196000	1529.553
195950	1529.944
195900	1530.334
195850	1530.725
195800	1531.116
195750	1531.507
195700	1531.898
195650	1532.29
195600	1532.681
195550	1533.073
195500	1533.465
195450	1533.858
195400	1534.25
195350	1534.643
195300	1535.036
195250	1535.429
195200	1535.822
195150	1536.216
195100	1536.609
195050	1537.003
195000	1537.397
194950	1537.792
194900	1538.186
194850	1538.581
194800	1538.976
194750	1539.371
194700	1539.766
194650	1540.162
194600	1540.557
194550	1540.953
194500	1541.349
194450	1541.746
194400	1542.144
194350	1542.539
194300	1542.936
194250	1543.333
194200	1543.73
194150	1544.128
194100	1544.526
194050	1544.924
194000	1545.322
193950	1545.72
193900	1546.119
193850	1546.518
193800	1546.917
193750	1547.316
193700	1547.715
193650	1548.115
193600	1548.515
193550	1548.915
193500	1549.315
193450	1549.715
193400	1550.116
193350	1550.517
193300	1550.918
193250	1551.319
193200	1551.721
193150	1552.122
193100	1552.524
193050	1552.926
193000	1553.329
192950	1553.731
192900	1554.134
192850	1554.537
192800	1554.94
192750	1555.343
192700	1555.747
192650	1556.151
192600	1556.555
192550	1556.959
192500	1557.363
192450	1557.768
192400	1558.173
192350	1558.578
192300	1558.983
192250	1559.389
192200	1559.794
192150	1560.2
192100	1560.606
192050	1561.013
192000	1561.419
191950	1561.826
191900	1562.233
191850	1562.64
191800	1563.047
191750	1563.455
191700	1563.863
191650	1564.27
191600	1564.679
191550	1565.087
191500	1565.496
191450	1565.905
191400	1566.314
191350	1566.723
191300	1567.133
191250	1567.542
191200	1567.952
191150	1568.362
191100	1568.773
191050	1569.183
